Time(us),Position(counts),Speed(rad/s)
2,-330339,0.0000
5002,-330339,0.0000
10003,-330341,2.0863
15004,-330344,3.1294
20005,-330348,4.1725
25007,-330352,4.1717
30008,-330358,6.2588
35010,-330364,6.2575
40010,-330372,8.3467
45012,-330380,8.3434
50013,-330388,8.3450
55015,-330397,9.3863
60016,-330407,10.4313
65016,-330417,10.4334
70018,-330427,10.4292
75020,-330438,11.4721
80021,-330450,12.5175
85023,-330461,11.4721
90024,-330473,12.5175
95026,-330486,13.5580
100027,-330498,12.5175
105029,-330512,14.6009
110029,-330525,13.5634
115031,-330538,13.5580
120032,-330552,14.6038
125034,-330566,14.6009
130035,-330581,15.6469
135036,-330596,15.6469
140037,-330610,14.6038
145039,-330626,16.6867
150040,-330641,15.6469
155042,-330656,15.6438
160042,-330672,16.6934
165044,-330687,15.6438
170045,-330703,16.6901
175047,-330719,16.6867
180048,-330736,17.7332
185048,-330752,16.6934
190050,-330768,16.6867
195051,-330785,17.7332
200053,-330802,17.7296
205054,-330819,17.7332
210055,-330836,17.7332
215056,-330853,17.7332
220058,-330870,17.7296
225059,-330887,17.7332
230061,-330904,17.7296
235061,-330922,18.7801
240063,-330940,18.7726
245064,-330957,17.7332
250066,-330975,18.7726
255067,-330993,18.7763
260068,-331010,17.7332
265069,-331028,18.7763
270071,-331046,18.7726
275072,-331065,19.8194
280074,-331083,18.7726
285074,-331101,18.7801
290076,-331120,19.8155
295077,-331138,18.7763
300079,-331157,19.8155
305080,-331175,18.7763
310082,-331194,19.8155
315083,-331213,19.8194
320085,-331232,19.8155
325087,-331251,19.8155
330088,-331270,19.8194
335090,-331289,19.8155
340091,-331308,19.8194
345093,-331327,19.8155
350095,-331346,19.8155
355096,-331366,20.8626
360098,-331385,19.8155
365099,-331405,20.8626
370101,-331424,19.8155
375103,-331444,20.8584
380104,-331464,20.8626
385106,-331483,19.8155
390107,-331503,20.8626
395109,-331522,19.8155
400111,-331542,20.8584
405112,-331562,20.8626
410114,-331582,20.8584
415115,-331602,20.8626
420117,-331622,20.8584
425119,-331642,20.8584
430120,-331662,20.8626
435122,-331682,20.8584
440123,-331702,20.8626
445125,-331722,20.8584
450127,-331742,20.8584
455128,-331762,20.8626
460130,-331782,20.8584
465131,-331802,20.8626
470133,-331822,20.8584
475135,-331842,20.8584
480136,-331862,20.8626
485138,-331881,19.8155
490139,-331901,20.8626
495141,-331920,19.8155
500143,-331940,20.8584
505144,-331959,19.8194
510146,-331979,20.8584
515147,-331998,19.8194
520149,-332018,20.8584
525150,-332037,19.8194
530152,-332057,20.8584
535154,-332076,19.8155
540155,-332096,20.8626
545157,-332115,19.8155
550158,-332134,19.8194
555160,-332154,20.8584
560162,-332174,20.8584
565163,-332194,20.8626
570165,-332213,19.8155
575166,-332233,20.8626
580168,-332253,20.8584
585170,-332273,20.8584
590171,-332293,20.8626
595173,-332313,20.8584
600174,-332334,21.9057
605176,-332354,20.8584
610178,-332374,20.8584
615179,-332394,20.8626
620181,-332415,21.9013
625182,-332435,20.8626
630184,-332456,21.9013
635186,-332476,20.8584
640187,-332496,20.8626
645189,-332517,21.9013
650190,-332537,20.8626
655192,-332558,21.9013
660194,-332578,20.8584
665195,-332599,21.9057
670197,-332619,20.8584
675198,-332640,21.9057
680200,-332660,20.8584
685202,-332681,21.9013
690203,-332702,21.9057
695205,-332722,20.8584
700206,-332743,21.9057
705208,-332764,21.9013
710210,-332784,20.8584
715211,-332805,21.9057
720213,-332826,21.9013
725214,-332846,20.8626
730216,-332867,21.9013
735217,-332888,21.9057
740219,-332908,20.8584
745221,-332928,20.8584
750222,-332949,21.9057
755224,-332969,20.8584
760225,-332989,20.8626
765227,-333009,20.8584
770229,-333030,21.9013
775230,-333050,20.8626
780232,-333070,20.8584
785233,-333090,20.8626
790235,-333110,20.8584
795237,-333131,21.9013
800238,-333151,20.8626
805240,-333171,20.8584
810241,-333191,20.8626
815243,-333211,20.8584
820245,-333232,21.9013
825246,-333252,20.8626
830248,-333272,20.8584
835249,-333292,20.8626
840251,-333312,20.8584
845253,-333332,20.8584
850254,-333352,20.8626
855256,-333372,20.8584
860257,-333392,20.8626
865259,-333412,20.8584
870261,-333432,20.8584
875262,-333452,20.8626
880264,-333472,20.8584
885265,-333492,20.8626
890267,-333512,20.8584
895269,-333532,20.8584
900270,-333552,20.8626
905272,-333572,20.8584
910273,-333592,20.8626
915275,-333612,20.8584
920277,-333632,20.8584
925278,-333652,20.8626
930280,-333672,20.8584
935281,-333692,20.8626
940283,-333712,20.8584
945284,-333732,20.8626
950286,-333752,20.8584
955288,-333772,20.8584
960289,-333792,20.8626
965291,-333812,20.8584
970292,-333832,20.8626
975294,-333852,20.8584
980296,-333872,20.8584
985297,-333892,20.8626
990299,-333912,20.8584
995300,-333932,20.8626
1000302,-333952,20.8584
1005304,-333972,20.8584
1010305,-333992,20.8626
1015307,-334012,20.8584
1020308,-334032,20.8626
1025310,-334052,20.8584
1030312,-334072,20.8584
1035313,-334092,20.8626
1040315,-334112,20.8584
1045316,-334132,20.8626
1050318,-334152,20.8584
1055320,-334172,20.8584
1060321,-334192,20.8626
1065323,-334212,20.8584
1070324,-334232,20.8626
1075326,-334252,20.8584
1080328,-334272,20.8584
1085329,-334292,20.8626
1090331,-334312,20.8584
1095332,-334332,20.8626
1100334,-334352,20.8584
1105336,-334372,20.8584
1110337,-334392,20.8626
1115339,-334412,20.8584
1120340,-334432,20.8626
1125342,-334452,20.8584
1130344,-334472,20.8584
1135345,-334492,20.8626
1140347,-334512,20.8584
1145348,-334532,20.8626
1150350,-334552,20.8584
1155351,-334572,20.8626
1160353,-334592,20.8584
1165355,-334612,20.8584
1170356,-334632,20.8626
1175358,-334652,20.8584
1180359,-334673,21.9057
1185361,-334693,20.8584
1190363,-334713,20.8584
1195364,-334733,20.8626
1200366,-334753,20.8584
1205367,-334773,20.8626
1210369,-334793,20.8584
1215371,-334813,20.8584
1220372,-334832,19.8194
1225374,-334852,20.8584
1230375,-334872,20.8626
1235377,-334892,20.8584
1240379,-334912,20.8584
1245380,-334932,20.8626
1250382,-334952,20.8584
1255383,-334972,20.8626
1260385,-334992,20.8584
1265387,-335012,20.8584
1270388,-335032,20.8626
1275390,-335052,20.8584
1280391,-335072,20.8626
1285393,-335092,20.8584
1290395,-335112,20.8584
1295396,-335132,20.8626
1300398,-335152,20.8584
1305399,-335172,20.8626
1310401,-335193,21.9013
1315403,-335213,20.8584
1320404,-335233,20.8626
1325406,-335253,20.8584
1330407,-335273,20.8626
1335409,-335293,20.8584
1340411,-335312,19.8155
1345412,-335332,20.8626
1350414,-335352,20.8584
1355415,-335372,20.8626
1360417,-335391,19.8155
1365418,-335411,20.8626
1370420,-335431,20.8584
1375422,-335451,20.8584
1380423,-335471,20.8626
1385425,-335490,19.8155
1390426,-335510,20.8626
1395428,-335530,20.8584
1400430,-335550,20.8584
1405431,-335570,20.8626
1410433,-335589,19.8155
1415434,-335609,20.8626
1420436,-335629,20.8584
1425438,-335648,19.8155
1430439,-335668,20.8626
1435441,-335688,20.8584
1440442,-335707,19.8194
1445444,-335727,20.8584
1450446,-335747,20.8584
1455447,-335767,20.8626
1460449,-335787,20.8584
1465450,-335807,20.8626
1470452,-335826,19.8155
1475454,-335846,20.8584
1480455,-335867,21.9057
1485457,-335887,20.8584
1490458,-335907,20.8626
1495460,-335927,20.8584
1500462,-335948,21.9013
1505463,-335968,20.8626
1510465,-335988,20.8584
1515466,-336008,20.8626
1520468,-336029,21.9013
1525470,-336049,20.8584
1530471,-336070,21.9057
1535473,-336090,20.8584
1540474,-336111,21.9057
1545476,-336131,20.8584
1550478,-336152,21.9013
1555479,-336172,20.8626
1560481,-336193,21.9013
1565482,-336214,21.9057
1570484,-336234,20.8584
1575485,-336255,21.9057
1580487,-336275,20.8584
1585489,-336296,21.9013
1590490,-336317,21.9057
1595492,-336338,21.9013
1600493,-336358,20.8626
1605495,-336379,21.9013
1610497,-336400,21.9013
1615498,-336420,20.8626
1620500,-336441,21.9013
1625501,-336462,21.9057
1630503,-336482,20.8584
1635505,-336503,21.9013
1640506,-336523,20.8626
1645508,-336543,20.8584
1650509,-336563,20.8626
1655511,-336583,20.8584
1660513,-336603,20.8584
1665514,-336623,20.8626
1670516,-336643,20.8584
1675517,-336662,19.8194
1680519,-336682,20.8584
1685521,-336702,20.8584
1690522,-336722,20.8626
1695524,-336742,20.8584
1700525,-336761,19.8194
1705527,-336780,19.8155
1710529,-336800,20.8584
1715530,-336820,20.8626
1720532,-336839,19.8155
1725533,-336859,20.8626
1730535,-336878,19.8155
1735537,-336898,20.8584
1740538,-336917,19.8194
1745540,-336937,20.8584
1750541,-336956,19.8194
1755543,-336976,20.8584
1760545,-336996,20.8584
1765546,-337016,20.8626
1770548,-337036,20.8584
1775549,-337056,20.8626
1780551,-337076,20.8584
1785552,-337096,20.8626
1790554,-337116,20.8584
1795556,-337136,20.8584
1800557,-337156,20.8626
1805559,-337176,20.8584
1810560,-337196,20.8626
1815562,-337217,21.9013
1820564,-337237,20.8584
1825565,-337258,21.9057
1830567,-337278,20.8584
1835568,-337299,21.9057
1840570,-337319,20.8584
1845572,-337340,21.9013
1850573,-337360,20.8626
1855575,-337381,21.9013
1860576,-337401,20.8626
1865578,-337422,21.9013
1870580,-337442,20.8584
1875581,-337463,21.9057
1880583,-337484,21.9013
1885584,-337504,20.8626
1890586,-337525,21.9013
1895588,-337546,21.9013
1900589,-337567,21.9057
1905591,-337588,21.9013
1910592,-337608,20.8626
1915594,-337629,21.9013
1920596,-337650,21.9013
1925597,-337670,20.8626
1930599,-337691,21.9013
1935600,-337712,21.9057
1940602,-337733,21.9013
1945604,-337753,20.8584
1950605,-337774,21.9057
1955607,-337794,20.8584
1960608,-337815,21.9057
1965610,-337835,20.8584
1970612,-337856,21.9013
1975613,-337876,20.8626
1980615,-337896,20.8584
1985616,-337916,20.8626
1990618,-337936,20.8584
1995619,-337956,20.8626
2000621,-337976,20.8584
2005623,-337996,20.8584
2010624,-338016,20.8626
2015626,-338035,19.8155
2020627,-338055,20.8626
2025629,-338075,20.8584
2030631,-338095,20.8584
2035632,-338115,20.8626
2040634,-338136,21.9013
2045635,-338156,20.8626
2050637,-338176,20.8584
2055639,-338196,20.8584
2060640,-338216,20.8626
2065642,-338236,20.8584
2070643,-338256,20.8626
2075645,-338277,21.9013
2080647,-338297,20.8584
2085648,-338317,20.8626
2090650,-338337,20.8584
2095651,-338358,21.9057
2100653,-338378,20.8584
2105655,-338398,20.8584
2110656,-338419,21.9057
2115658,-338439,20.8584
2120659,-338460,21.9057
2125661,-338480,20.8584
2130663,-338500,20.8584
2135664,-338521,21.9057
2140666,-338542,21.9013
2145667,-338562,20.8626
2150669,-338583,21.9013
2155671,-338604,21.9013
2160672,-338624,20.8626
2165674,-338645,21.9013
2170675,-338666,21.9057
2175677,-338686,20.8584
2180679,-338707,21.9013
2185680,-338728,21.9057
2190682,-338749,21.9013
2195683,-338769,20.8626
2200685,-338790,21.9013
2205686,-338811,21.9057
2210688,-338832,21.9013
2215690,-338852,20.8584
2220691,-338873,21.9057
2225693,-338894,21.9013
2230694,-338915,21.9057
2235696,-338936,21.9013
2240698,-338956,20.8584
2245699,-338977,21.9057
2250701,-338997,20.8584
2255702,-339018,21.9057
2260704,-339038,20.8584
2265706,-339059,21.9013
2270707,-339079,20.8626
2275709,-339100,21.9013
2280710,-339120,20.8626
2285712,-339140,20.8584
2290714,-339161,21.9013
2295715,-339181,20.8626
2300717,-339201,20.8584
2305718,-339222,21.9057
2310720,-339242,20.8584
2315722,-339262,20.8584
2320723,-339282,20.8626
2325725,-339303,21.9013
2330726,-339323,20.8626
2335728,-339343,20.8584
2340730,-339362,19.8155
2345731,-339382,20.8626
2350733,-339402,20.8584
2355734,-339422,20.8626
2360736,-339442,20.8584
2365738,-339462,20.8584
2370739,-339482,20.8626
2375741,-339502,20.8584
2380742,-339522,20.8626
2385744,-339542,20.8584
2390746,-339562,20.8584
2395747,-339582,20.8626
2400749,-339602,20.8584
2405750,-339622,20.8626
2410752,-339642,20.8584
2415753,-339662,20.8626
2420755,-339682,20.8584
2425757,-339702,20.8584
2430758,-339722,20.8626
2435760,-339742,20.8584
2440761,-339762,20.8626
2445763,-339782,20.8584
2450765,-339802,20.8584
2455766,-339822,20.8626
2460768,-339842,20.8584
2465769,-339862,20.8626
2470771,-339882,20.8584
2475773,-339902,20.8584
2480774,-339922,20.8626
2485776,-339942,20.8584
2490777,-339962,20.8626
2495779,-339982,20.8584
2500781,-340002,20.8584
2505782,-340022,20.8626
2510784,-340043,21.9013
2515785,-340063,20.8626
2520787,-340083,20.8584
2525789,-340103,20.8584
2530790,-340123,20.8626
2535792,-340143,20.8584
2540793,-340163,20.8626
2545795,-340182,19.8155
2550797,-340202,20.8584
2555798,-340222,20.8626
2560800,-340242,20.8584
2565801,-340262,20.8626
2570803,-340281,19.8155
2575805,-340301,20.8584
2580806,-340321,20.8626
2585808,-340341,20.8584
2590809,-340361,20.8626
2595811,-340381,20.8584
2600813,-340401,20.8584
2605814,-340421,20.8626
2610816,-340441,20.8584
2615817,-340461,20.8626
2620819,-340481,20.8584
2625820,-340501,20.8626
2630822,-340521,20.8584
2635824,-340541,20.8584
2640825,-340561,20.8626
2645827,-340581,20.8584
2650828,-340602,21.9057
2655830,-340622,20.8584
2660832,-340642,20.8584
2665833,-340663,21.9057
2670835,-340683,20.8584
2675836,-340704,21.9057
2680838,-340724,20.8584
2685840,-340744,20.8584
2690841,-340765,21.9057
2695843,-340785,20.8584
2700844,-340806,21.9057
2705846,-340827,21.9013
2710848,-340847,20.8584
2715849,-340868,21.9057
2720851,-340888,20.8584
2725852,-340909,21.9057
2730854,-340930,21.9013
2735856,-340951,21.9013
2740857,-340971,20.8626
2745859,-340992,21.9013
2750860,-341013,21.9057
2755862,-341033,20.8584
2760864,-341054,21.9013
2765865,-341074,20.8626
2770867,-341095,21.9013
2775868,-341115,20.8626
2780870,-341136,21.9013
2785872,-341156,20.8584
2790873,-341176,20.8626
2795875,-341197,21.9013
2800876,-341217,20.8626
2805878,-341238,21.9013
2810880,-341259,21.9013
2815881,-341279,20.8626
2820883,-341299,20.8584
2825884,-341320,21.9057
2830886,-341340,20.8584
2835887,-341360,20.8626
2840889,-341380,20.8584
2845891,-341401,21.9013
2850892,-341421,20.8626
2855894,-341442,21.9013
2860895,-341462,20.8626
2865897,-341482,20.8584
2870899,-341502,20.8584
2875900,-341523,21.9057
2880902,-341543,20.8584
2885903,-341563,20.8626
2890905,-341583,20.8584
2895907,-341603,20.8584
2900908,-341623,20.8626
2905910,-341643,20.8584
2910911,-341663,20.8626
2915913,-341683,20.8584
2920915,-341703,20.8584
2925916,-341723,20.8626
2930918,-341742,19.8155
2935919,-341762,20.8626
2940921,-341782,20.8584
2945923,-341802,20.8584
2950924,-341822,20.8626
2955926,-341843,21.9013
2960927,-341863,20.8626
2965929,-341883,20.8584
2970931,-341903,20.8584
2975932,-341924,21.9057
2980934,-341944,20.8584
2985935,-341964,20.8626
2990937,-341984,20.8584
2995939,-342005,21.9013
3000940,-342025,20.8626
3005942,-342046,21.9013
3010942,-342066,20.8667
3015942,-342087,21.9101
3020942,-342107,20.8667
3025942,-342128,21.9101
3030942,-342148,20.8667
3035942,-342169,21.9101
3040942,-342190,21.9101
3045942,-342210,20.8667
3050942,-342231,21.9101
3055942,-342252,21.9101
3060942,-342273,21.9101
3065942,-342294,21.9101
3070942,-342314,20.8667
3075942,-342335,21.9101
3080942,-342356,21.9101
3085942,-342377,21.9101
3090942,-342398,21.9101
3095942,-342418,20.8667
3100942,-342439,21.9101
3105942,-342460,21.9101
3110942,-342480,20.8667
3115942,-342500,20.8667
3120942,-342520,20.8667
3125942,-342540,20.8667
3130942,-342560,20.8667
3135942,-342580,20.8667
3140942,-342600,20.8667
3145942,-342621,21.9101
3150942,-342641,20.8667
3155942,-342661,20.8667
3160942,-342681,20.8667
3165942,-342701,20.8667
3170942,-342721,20.8667
3175942,-342741,20.8667
3180942,-342761,20.8667
3185942,-342781,20.8667
3190942,-342801,20.8667
3195942,-342820,19.8234
3200942,-342840,20.8667
3205942,-342861,21.9101
3210942,-342881,20.8667
3215942,-342901,20.8667
3220942,-342921,20.8667
3225942,-342941,20.8667
3230942,-342962,21.9101
3235942,-342982,20.8667
3240942,-343002,20.8667
3245942,-343022,20.8667
3250942,-343043,21.9101
3255942,-343063,20.8667
3260942,-343084,21.9101
3265942,-343104,20.8667
3270942,-343124,20.8667
3275942,-343145,21.9101
3280942,-343166,21.9101
3285942,-343186,20.8667
3290942,-343207,21.9101
3295942,-343228,21.9101
3300942,-343248,20.8667
3305942,-343269,21.9101
3310942,-343290,21.9101
3315942,-343310,20.8667
3320942,-343331,21.9101
3325942,-343352,21.9101
3330942,-343372,20.8667
3335942,-343393,21.9101
3340942,-343414,21.9101
3345942,-343435,21.9101
3350942,-343456,21.9101
3355942,-343477,21.9101
3360942,-343498,21.9101
3365942,-343518,20.8667
3370942,-343540,22.9534
3375942,-343560,20.8667
3380942,-343581,21.9101
3385942,-343602,21.9101
3390942,-343623,21.9101
3395942,-343644,21.9101
3400942,-343665,21.9101
3405942,-343686,21.9101
3410942,-343707,21.9101
3415942,-343728,21.9101
3420942,-343749,21.9101
3425942,-343769,20.8667
3430942,-343790,21.9101
3435942,-343810,20.8667
3440942,-343831,21.9101
3445942,-343851,20.8667
3450942,-343871,20.8667
3455942,-343891,20.8667
3460942,-343911,20.8667
3465942,-343931,20.8667
3470942,-343950,19.8234
3475942,-343970,20.8667
3480942,-343990,20.8667
3485942,-344010,20.8667
3490942,-344030,20.8667
3495942,-344050,20.8667
3500942,-344070,20.8667
3505942,-344090,20.8667
3510942,-344110,20.8667
3515942,-344130,20.8667
3520942,-344150,20.8667
3525942,-344169,19.8234
3530942,-344189,20.8667
3535942,-344209,20.8667
3540942,-344229,20.8667
3545942,-344249,20.8667
3550942,-344269,20.8667
3555942,-344289,20.8667
3560942,-344310,21.9101
3565942,-344330,20.8667
3570942,-344350,20.8667
3575942,-344370,20.8667
3580942,-344390,20.8667
3585942,-344411,21.9101
3590942,-344431,20.8667
3595942,-344452,21.9101
3600942,-344472,20.8667
3605942,-344492,20.8667
3610942,-344513,21.9101
3615942,-344534,21.9101
3620942,-344554,20.8667
3625942,-344575,21.9101
3630942,-344596,21.9101
3635942,-344616,20.8667
3640942,-344637,21.9101
3645942,-344657,20.8667
3650942,-344678,21.9101
3655942,-344699,21.9101
3660942,-344720,21.9101
3665942,-344740,20.8667
3670942,-344761,21.9101
3675942,-344782,21.9101
3680942,-344802,20.8667
3685942,-344823,21.9101
3690942,-344844,21.9101
3695942,-344865,21.9101
3700942,-344886,21.9101
3705942,-344907,21.9101
3710942,-344928,21.9101
3715942,-344948,20.8667
3720942,-344969,21.9101
3725942,-344990,21.9101
3730942,-345010,20.8667
3735942,-345031,21.9101
3740942,-345052,21.9101
3745942,-345072,20.8667
3750942,-345093,21.9101
3755942,-345113,20.8667
3760942,-345134,21.9101
3765942,-345154,20.8667
3770942,-345174,20.8667
3775942,-345194,20.8667
3780942,-345214,20.8667
3785942,-345234,20.8667
3790942,-345255,21.9101
3795942,-345275,20.8667
3800942,-345295,20.8667
3805942,-345315,20.8667
3810942,-345335,20.8667
3815942,-345355,20.8667
3820942,-345375,20.8667
3825942,-345395,20.8667
3830942,-345415,20.8667
3835942,-345435,20.8667
3840942,-345455,20.8667
3845942,-345475,20.8667
3850942,-345495,20.8667
3855942,-345515,20.8667
3860942,-345535,20.8667
3865942,-345555,20.8667
3870942,-345575,20.8667
3875942,-345595,20.8667
3880942,-345615,20.8667
3885942,-345635,20.8667
3890942,-345655,20.8667
3895942,-345675,20.8667
3900942,-345695,20.8667
3905942,-345715,20.8667
3910942,-345735,20.8667
3915942,-345755,20.8667
3920942,-345775,20.8667
3925942,-345795,20.8667
3930942,-345815,20.8667
3935942,-345835,20.8667
3940942,-345855,20.8667
3945942,-345875,20.8667
3950942,-345895,20.8667
3955942,-345915,20.8667
3960942,-345935,20.8667
3965942,-345955,20.8667
3970942,-345975,20.8667
3975942,-345995,20.8667
3980942,-346015,20.8667
3985942,-346035,20.8667
3990942,-346055,20.8667
3995942,-346075,20.8667
4000942,-346095,20.8667
4005942,-346115,20.8667
4010942,-346135,20.8667
4015942,-346155,20.8667
4020942,-346175,20.8667
4025942,-346194,19.8234
4030942,-346214,20.8667
