Time(us),Position(counts),Speed(rad/s)
2,-243369,0.0000
5002,-243370,1.0433
10003,-243372,2.0863
15004,-243376,4.1725
20005,-243380,4.1725
25007,-243386,6.2575
30008,-243393,7.3019
35010,-243401,8.3434
40010,-243410,9.3900
45012,-243419,9.3863
50013,-243430,11.4744
55015,-243441,11.4721
60016,-243452,11.4744
65018,-243465,13.5580
70020,-243478,13.5580
75021,-243491,13.5607
80023,-243505,14.6009
85023,-243519,14.6067
90024,-243533,14.6038
95026,-243548,15.6438
100027,-243563,15.6469
105029,-243578,15.6438
110029,-243594,16.6934
115031,-243610,16.6867
120032,-243626,16.6901
125034,-243643,17.7296
130035,-243659,16.6901
135036,-243676,17.7332
140037,-243694,18.7763
145039,-243711,17.7296
150040,-243729,18.7763
155042,-243747,18.7726
160042,-243765,18.7801
165044,-243784,19.8155
170045,-243802,18.7763
175047,-243820,18.7726
180048,-243839,19.8194
185050,-243858,19.8155
190051,-243876,18.7763
195053,-243895,19.8155
200054,-243914,19.8194
205055,-243933,19.8194
210056,-243952,19.8194
215058,-243972,20.8584
220060,-243991,19.8155
225061,-244010,19.8194
230063,-244029,19.8155
235064,-244049,20.8626
240066,-244068,19.8155
245068,-244088,20.8584
250069,-244108,20.8626
255071,-244128,20.8584
260072,-244148,20.8626
265074,-244167,19.8155
270076,-244187,20.8584
275077,-244207,20.8626
280079,-244227,20.8584
285080,-244247,20.8626
290082,-244267,20.8584
295083,-244287,20.8626
300085,-244308,21.9013
305087,-244328,20.8584
310088,-244348,20.8626
315090,-244368,20.8584
320091,-244389,21.9057
325093,-244409,20.8584
330095,-244430,21.9013
335096,-244450,20.8626
340098,-244471,21.9013
345099,-244492,21.9057
350101,-244513,21.9013
355103,-244533,20.8584
360104,-244554,21.9057
365106,-244575,21.9013
370107,-244596,21.9057
375109,-244617,21.9013
380111,-244638,21.9013
385112,-244660,22.9488
390114,-244681,21.9013
395115,-244702,21.9057
400117,-244723,21.9013
405119,-244744,21.9013
410120,-244766,22.9488
415122,-244787,21.9013
420123,-244808,21.9057
425125,-244830,22.9442
430127,-244851,21.9013
435128,-244872,21.9057
440130,-244894,22.9442
445131,-244915,21.9057
450133,-244936,21.9013
455135,-244957,21.9013
460136,-244978,21.9057
465138,-244998,20.8584
470139,-245019,21.9057
475141,-245040,21.9013
480143,-245061,21.9013
485144,-245081,20.8626
490146,-245102,21.9013
495147,-245123,21.9057
500149,-245144,21.9013
505150,-245164,20.8626
510152,-245185,21.9013
515154,-245205,20.8584
520155,-245226,21.9057
525157,-245246,20.8584
530158,-245267,21.9057
535160,-245288,21.9013
540162,-245308,20.8584
545163,-245329,21.9057
550165,-245350,21.9013
555166,-245370,20.8626
560168,-245391,21.9013
565170,-245412,21.9013
570171,-245432,20.8626
575173,-245453,21.9013
580174,-245474,21.9057
585176,-245495,21.9013
590178,-245516,21.9013
595179,-245537,21.9057
600181,-245558,21.9013
605182,-245579,21.9057
610184,-245600,21.9013
615186,-245621,21.9013
620187,-245642,21.9057
625189,-245664,22.9442
630190,-245685,21.9057
635192,-245706,21.9013
640194,-245728,22.9442
645195,-245749,21.9057
650197,-245770,21.9013
655198,-245792,22.9488
660200,-245813,21.9013
665202,-245835,22.9442
670203,-245856,21.9057
675205,-245878,22.9442
680206,-245899,21.9057
685208,-245920,21.9013
690210,-245942,22.9442
695211,-245964,22.9488
700213,-245985,21.9013
705214,-246007,22.9488
710216,-246028,21.9013
715217,-246050,22.9488
720219,-246071,21.9013
725221,-246093,22.9442
730222,-246114,21.9057
735224,-246136,22.9442
740225,-246158,22.9488
745227,-246179,21.9013
750229,-246201,22.9442
755230,-246222,21.9057
760232,-246244,22.9442
765233,-246265,21.9057
770235,-246286,21.9013
775237,-246308,22.9442
780238,-246329,21.9057
785240,-246350,21.9013
790241,-246370,20.8626
795243,-246391,21.9013
800245,-246412,21.9013
805246,-246433,21.9057
810248,-246454,21.9013
815249,-246474,20.8626
820251,-246496,22.9442
825253,-246516,20.8584
830254,-246537,21.9057
835256,-246558,21.9013
840257,-246579,21.9057
845259,-246600,21.9013
850261,-246620,20.8584
855262,-246641,21.9057
860264,-246662,21.9013
865265,-246683,21.9057
870267,-246704,21.9013
875269,-246725,21.9013
880270,-246746,21.9057
885272,-246767,21.9013
890273,-246788,21.9057
895275,-246809,21.9013
900277,-246830,21.9013
905278,-246852,22.9488
910280,-246873,21.9013
915281,-246894,21.9057
920283,-246916,22.9442
925284,-246937,21.9057
930286,-246958,21.9013
935288,-246980,22.9442
940289,-247001,21.9057
945291,-247023,22.9442
950292,-247044,21.9057
955294,-247066,22.9442
960296,-247087,21.9013
965297,-247109,22.9488
970299,-247131,22.9442
975300,-247152,21.9057
980302,-247174,22.9442
985304,-247196,22.9442
990305,-247217,21.9057
995307,-247239,22.9442
1000308,-247261,22.9488
1005310,-247282,21.9013
1010312,-247304,22.9442
1015313,-247326,22.9488
1020315,-247348,22.9442
1025316,-247369,21.9057
1030318,-247391,22.9442
1035320,-247412,21.9013
1040321,-247434,22.9488
1045323,-247456,22.9442
1050324,-247477,21.9057
1055326,-247498,21.9013
1060328,-247520,22.9442
1065329,-247542,22.9488
1070331,-247563,21.9013
1075332,-247584,21.9057
1080334,-247606,22.9442
1085336,-247627,21.9013
1090337,-247648,21.9057
1095339,-247669,21.9013
1100340,-247690,21.9057
1105342,-247711,21.9013
1110344,-247732,21.9013
1115345,-247753,21.9057
1120347,-247774,21.9013
1125348,-247795,21.9057
1130350,-247816,21.9013
1135351,-247837,21.9057
1140353,-247858,21.9013
1145355,-247879,21.9013
1150356,-247900,21.9057
1155358,-247922,22.9442
1160359,-247943,21.9057
1165361,-247964,21.9013
1170363,-247985,21.9013
1175364,-248006,21.9057
1180366,-248027,21.9013
1185367,-248049,22.9488
1190369,-248070,21.9013
1195371,-248091,21.9013
1200372,-248112,21.9057
1205374,-248134,22.9442
1210375,-248155,21.9057
1215377,-248177,22.9442
1220379,-248198,21.9013
1225380,-248220,22.9488
1230382,-248241,21.9013
1235383,-248263,22.9488
1240385,-248284,21.9013
1245387,-248306,22.9442
1250388,-248328,22.9488
1255390,-248349,21.9013
1260391,-248371,22.9488
1265393,-248392,21.9013
1270395,-248414,22.9442
1275396,-248436,22.9488
1280398,-248458,22.9442
1285399,-248479,21.9057
1290401,-248501,22.9442
1295403,-248523,22.9442
1300404,-248544,21.9057
1305406,-248566,22.9442
1310407,-248588,22.9488
1315409,-248610,22.9442
1320411,-248631,21.9013
1325412,-248653,22.9488
1330414,-248674,21.9013
1335415,-248696,22.9488
1340417,-248717,21.9013
1345418,-248739,22.9488
1350420,-248760,21.9013
1355422,-248782,22.9442
1360423,-248803,21.9057
1365425,-248825,22.9442
1370426,-248846,21.9057
1375428,-248868,22.9442
1380430,-248889,21.9013
1385431,-248910,21.9057
1390433,-248932,22.9442
1395434,-248953,21.9057
1400436,-248974,21.9013
1405438,-248996,22.9442
1410439,-249017,21.9057
1415441,-249038,21.9013
1420442,-249059,21.9057
1425444,-249080,21.9013
1430446,-249102,22.9442
1435447,-249123,21.9057
1440449,-249144,21.9013
1445450,-249166,22.9488
1450452,-249187,21.9013
1455454,-249208,21.9013
1460455,-249230,22.9488
1465457,-249251,21.9013
1470458,-249273,22.9488
1475460,-249294,21.9013
1480462,-249316,22.9442
1485463,-249337,21.9057
1490465,-249359,22.9442
1495466,-249380,21.9057
1500468,-249402,22.9442
1505470,-249424,22.9442
1510471,-249445,21.9057
1515473,-249467,22.9442
1520474,-249489,22.9488
1525476,-249510,21.9013
1530478,-249532,22.9442
1535479,-249554,22.9488
1540481,-249575,21.9013
1545482,-249597,22.9488
1550484,-249619,22.9442
1555485,-249640,21.9057
1560487,-249662,22.9442
1565489,-249684,22.9442
1570490,-249706,22.9488
1575492,-249728,22.9442
1580493,-249749,21.9057
1585495,-249771,22.9442
1590497,-249793,22.9442
1595498,-249815,22.9488
1600500,-249836,21.9013
1605501,-249858,22.9488
1610503,-249880,22.9442
1615505,-249902,22.9442
1620506,-249923,21.9057
1625508,-249945,22.9442
1630509,-249966,21.9057
1635511,-249988,22.9442
1640513,-250010,22.9442
1645514,-250031,21.9057
1650516,-250052,21.9013
1655517,-250074,22.9488
1660519,-250096,22.9442
1665521,-250117,21.9013
1670522,-250138,21.9057
1675524,-250160,22.9442
1680525,-250181,21.9057
1685527,-250203,22.9442
1690529,-250224,21.9013
1695530,-250246,22.9488
1700532,-250267,21.9013
1705533,-250289,22.9488
1710535,-250310,21.9013
1715537,-250332,22.9442
1720538,-250353,21.9057
1725540,-250375,22.9442
1730541,-250397,22.9488
1735543,-250418,21.9013
1740545,-250440,22.9442
1745546,-250462,22.9488
1750548,-250484,22.9442
1755549,-250505,21.9057
1760551,-250527,22.9442
1765552,-250549,22.9488
1770554,-250571,22.9442
1775556,-250592,21.9013
1780557,-250614,22.9488
1785559,-250636,22.9442
1790560,-250657,21.9057
1795562,-250678,21.9013
1800564,-250700,22.9442
1805565,-250721,21.9057
1810567,-250743,22.9442
1815568,-250764,21.9057
1820570,-250786,22.9442
1825572,-250807,21.9013
1830573,-250829,22.9488
1835575,-250850,21.9013
1840576,-250872,22.9488
1845578,-250893,21.9013
1850580,-250914,21.9013
1855581,-250936,22.9488
1860583,-250957,21.9013
1865584,-250979,22.9488
1870586,-251000,21.9013
1875588,-251021,21.9013
1880589,-251043,22.9488
1885591,-251064,21.9013
1890592,-251085,21.9057
1895594,-251107,22.9442
1900596,-251128,21.9013
1905597,-251150,22.9488
1910599,-251171,21.9013
1915600,-251192,21.9057
1920602,-251213,21.9013
1925604,-251234,21.9013
1930605,-251256,22.9488
1935607,-251277,21.9013
1940608,-251298,21.9057
1945610,-251319,21.9013
1950612,-251341,22.9442
1955613,-251362,21.9057
1960615,-251383,21.9013
1965616,-251404,21.9057
1970618,-251426,22.9442
1975619,-251447,21.9057
1980621,-251468,21.9013
1985623,-251490,22.9442
1990624,-251511,21.9057
1995626,-251532,21.9013
2000627,-251554,22.9488
2005629,-251576,22.9442
2010631,-251597,21.9013
2015632,-251619,22.9488
2020634,-251640,21.9013
2025635,-251662,22.9488
2030637,-251683,21.9013
2035639,-251705,22.9442
2040640,-251727,22.9488
2045642,-251748,21.9013
2050643,-251770,22.9488
2055645,-251792,22.9442
2060647,-251814,22.9442
2065648,-251836,22.9488
2070650,-251857,21.9013
2075651,-251879,22.9488
2080653,-251901,22.9442
2085655,-251923,22.9442
2090656,-251945,22.9488
2095658,-251967,22.9442
2100659,-251988,21.9057
2105661,-252010,22.9442
2110663,-252032,22.9442
2115664,-252054,22.9488
2120666,-252076,22.9442
2125667,-252098,22.9488
2130669,-252119,21.9013
2135671,-252141,22.9442
2140672,-252162,21.9057
2145674,-252184,22.9442
2150675,-252205,21.9057
2155677,-252226,21.9013
2160679,-252247,21.9013
2165680,-252268,21.9057
2170682,-252289,21.9013
2175683,-252310,21.9057
2180685,-252331,21.9013
2185686,-252352,21.9057
2190688,-252373,21.9013
2195690,-252394,21.9013
2200691,-252415,21.9057
2205693,-252436,21.9013
2210694,-252456,20.8626
2215696,-252477,21.9013
2220698,-252498,21.9013
2225699,-252519,21.9057
2230701,-252540,21.9013
2235702,-252560,20.8626
2240704,-252581,21.9013
2245706,-252602,21.9013
2250707,-252623,21.9057
2255709,-252644,21.9013
2260710,-252665,21.9057
2265712,-252686,21.9013
2270714,-252707,21.9013
2275715,-252728,21.9057
2280717,-252749,21.9013
2285718,-252770,21.9057
2290720,-252792,22.9442
2295722,-252813,21.9013
2300723,-252834,21.9057
2305725,-252856,22.9442
2310726,-252877,21.9057
2315728,-252899,22.9442
2320730,-252920,21.9013
2325731,-252942,22.9488
2330733,-252963,21.9013
2335734,-252984,21.9057
2340736,-253006,22.9442
2345738,-253027,21.9013
2350739,-253049,22.9488
2355741,-253070,21.9013
2360742,-253092,22.9488
2365744,-253113,21.9013
2370746,-253135,22.9442
2375747,-253156,21.9057
2380749,-253178,22.9442
2385750,-253199,21.9057
2390752,-253221,22.9442
2395753,-253243,22.9488
2400755,-253264,21.9013
2405757,-253286,22.9442
2410758,-253308,22.9488
2415760,-253329,21.9013
2420761,-253351,22.9488
2425763,-253373,22.9442
2430765,-253394,21.9013
2435766,-253416,22.9488
2440768,-253438,22.9442
2445769,-253459,21.9057
2450771,-253481,22.9442
2455773,-253502,21.9013
2460774,-253524,22.9488
2465776,-253545,21.9013
2470777,-253566,21.9057
2475779,-253587,21.9013
2480781,-253608,21.9013
2485782,-253629,21.9057
2490784,-253650,21.9013
2495785,-253671,21.9057
2500787,-253692,21.9013
2505789,-253713,21.9013
2510790,-253734,21.9057
2515792,-253754,20.8584
2520793,-253775,21.9057
2525795,-253796,21.9013
2530797,-253817,21.9013
2535798,-253838,21.9057
2540800,-253859,21.9013
2545801,-253880,21.9057
2550803,-253901,21.9013
2555805,-253922,21.9013
2560806,-253943,21.9057
2565808,-253964,21.9013
2570809,-253986,22.9488
2575811,-254007,21.9013
2580813,-254028,21.9013
2585814,-254049,21.9057
2590816,-254071,22.9442
2595817,-254092,21.9057
2600819,-254114,22.9442
2605820,-254135,21.9057
2610822,-254157,22.9442
2615824,-254178,21.9013
2620825,-254200,22.9488
2625827,-254221,21.9013
2630828,-254243,22.9488
2635830,-254265,22.9442
2640832,-254286,21.9013
2645833,-254308,22.9488
2650835,-254330,22.9442
2655836,-254352,22.9488
2660838,-254373,21.9013
2665840,-254395,22.9442
2670841,-254417,22.9488
2675843,-254439,22.9442
2680844,-254460,21.9057
2685846,-254482,22.9442
2690848,-254504,22.9442
2695849,-254526,22.9488
2700851,-254548,22.9442
2705852,-254570,22.9488
2710854,-254592,22.9442
2715856,-254614,22.9442
2720857,-254636,22.9488
2725859,-254657,21.9013
2730860,-254679,22.9488
2735862,-254701,22.9442
2740864,-254722,21.9013
2745865,-254744,22.9488
2750867,-254766,22.9442
2755868,-254787,21.9057
2760870,-254809,22.9442
2765872,-254830,21.9013
2770873,-254852,22.9488
2775875,-254873,21.9013
2780876,-254894,21.9057
2785878,-254915,21.9013
2790880,-254936,21.9013
2795881,-254957,21.9057
2800883,-254978,21.9013
2805884,-254999,21.9057
2810886,-255020,21.9013
2815887,-255042,22.9488
2820889,-255063,21.9013
2825891,-255084,21.9013
2830892,-255106,22.9488
2835894,-255127,21.9013
2840895,-255148,21.9057
2845897,-255169,21.9013
2850899,-255191,22.9442
2855900,-255212,21.9057
2860902,-255233,21.9013
2865903,-255255,22.9488
2870905,-255276,21.9013
2875907,-255298,22.9442
2880908,-255319,21.9057
2885910,-255340,21.9013
2890911,-255362,22.9488
2895913,-255384,22.9442
2900915,-255405,21.9013
2905916,-255427,22.9488
2910918,-255449,22.9442
2915919,-255470,21.9057
2920921,-255492,22.9442
2925923,-255514,22.9442
2930924,-255536,22.9488
2935926,-255557,21.9013
2940927,-255579,22.9488
2945929,-255601,22.9442
2950931,-255623,22.9442
2955932,-255645,22.9488
2960934,-255667,22.9442
2965935,-255689,22.9488
2970937,-255711,22.9442
2975939,-255733,22.9442
2980940,-255755,22.9488
2985942,-255777,22.9442
2990942,-255799,22.9534
2995942,-255820,21.9101
3000942,-255842,22.9534
3005942,-255864,22.9534
3010942,-255886,22.9534
3015942,-255908,22.9534
3020942,-255930,22.9534
3025942,-255951,21.9101
3030942,-255973,22.9534
3035942,-255995,22.9534
3040942,-256016,21.9101
3045942,-256038,22.9534
3050942,-256060,22.9534
3055942,-256081,21.9101
3060942,-256103,22.9534
3065942,-256124,21.9101
3070942,-256146,22.9534
3075942,-256168,22.9534
3080942,-256189,21.9101
3085942,-256210,21.9101
3090942,-256232,22.9534
3095942,-256253,21.9101
3100942,-256275,22.9534
3105942,-256296,21.9101
3110942,-256318,22.9534
3115942,-256339,21.9101
3120942,-256360,21.9101
3125942,-256382,22.9534
3130942,-256403,21.9101
3135942,-256425,22.9534
3140942,-256446,21.9101
3145942,-256468,22.9534
3150942,-256490,22.9534
3155942,-256511,21.9101
3160942,-256533,22.9534
3165942,-256554,21.9101
3170942,-256576,22.9534
3175942,-256598,22.9534
3180942,-256619,21.9101
3185942,-256641,22.9534
3190942,-256663,22.9534
3195942,-256684,21.9101
3200942,-256706,22.9534
3205942,-256728,22.9534
3210942,-256750,22.9534
3215942,-256772,22.9534
3220942,-256794,22.9534
3225942,-256816,22.9534
3230942,-256837,21.9101
3235942,-256859,22.9534
3240942,-256881,22.9534
3245942,-256903,22.9534
3250942,-256925,22.9534
3255942,-256947,22.9534
3260942,-256969,22.9534
3265942,-256991,22.9534
3270942,-257013,22.9534
3275942,-257035,22.9534
3280942,-257057,22.9534
3285942,-257079,22.9534
3290942,-257100,21.9101
3295942,-257122,22.9534
3300942,-257144,22.9534
3305942,-257166,22.9534
3310942,-257187,21.9101
3315942,-257209,22.9534
3320942,-257230,21.9101
3325942,-257252,22.9534
3330942,-257273,21.9101
3335942,-257295,22.9534
3340942,-257316,21.9101
3345942,-257338,22.9534
3350942,-257359,21.9101
3355942,-257381,22.9534
3360942,-257402,21.9101
3365942,-257424,22.9534
3370942,-257445,21.9101
3375942,-257467,22.9534
3380942,-257488,21.9101
3385942,-257510,22.9534
3390942,-257531,21.9101
3395942,-257553,22.9534
3400942,-257574,21.9101
3405942,-257596,22.9534
3410942,-257618,22.9534
3415942,-257639,21.9101
3420942,-257661,22.9534
3425942,-257683,22.9534
3430942,-257704,21.9101
3435942,-257726,22.9534
3440942,-257748,22.9534
3445942,-257770,22.9534
3450942,-257792,22.9534
3455942,-257813,21.9101
3460942,-257835,22.9534
3465942,-257857,22.9534
3470942,-257878,21.9101
3475942,-257900,22.9534
3480942,-257922,22.9534
3485942,-257943,21.9101
3490942,-257965,22.9534
3495942,-257986,21.9101
3500942,-258008,22.9534
3505942,-258030,22.9534
3510942,-258052,22.9534
3515942,-258073,21.9101
3520942,-258095,22.9534
3525942,-258116,21.9101
3530942,-258138,22.9534
3535942,-258160,22.9534
3540942,-258181,21.9101
3545942,-258203,22.9534
3550942,-258225,22.9534
3555942,-258246,21.9101
3560942,-258268,22.9534
3565942,-258289,21.9101
3570942,-258311,22.9534
3575942,-258332,21.9101
3580942,-258354,22.9534
3585942,-258375,21.9101
3590942,-258397,22.9534
3595942,-258418,21.9101
3600942,-258440,22.9534
3605942,-258461,21.9101
3610942,-258483,22.9534
3615942,-258504,21.9101
3620942,-258525,21.9101
3625942,-258547,22.9534
3630942,-258568,21.9101
3635942,-258590,22.9534
3640942,-258611,21.9101
3645942,-258632,21.9101
3650942,-258654,22.9534
3655942,-258675,21.9101
3660942,-258697,22.9534
3665942,-258718,21.9101
3670942,-258740,22.9534
3675942,-258762,22.9534
3680942,-258783,21.9101
3685942,-258805,22.9534
3690942,-258826,21.9101
3695942,-258848,22.9534
3700942,-258870,22.9534
3705942,-258892,22.9534
3710942,-258914,22.9534
3715942,-258936,22.9534
3720942,-258957,21.9101
3725942,-258979,22.9534
3730942,-259001,22.9534
3735942,-259023,22.9534
3740942,-259045,22.9534
3745942,-259067,22.9534
3750942,-259089,22.9534
3755942,-259111,22.9534
3760942,-259133,22.9534
3765942,-259155,22.9534
3770942,-259177,22.9534
3775942,-259199,22.9534
3780942,-259221,22.9534
3785942,-259243,22.9534
3790942,-259265,22.9534
3795942,-259287,22.9534
3800942,-259309,22.9534
3805942,-259331,22.9534
3810942,-259352,21.9101
3815942,-259374,22.9534
3820942,-259396,22.9534
3825942,-259417,21.9101
3830942,-259438,21.9101
3835942,-259460,22.9534
3840942,-259481,21.9101
3845942,-259502,21.9101
3850942,-259523,21.9101
3855942,-259544,21.9101
3860942,-259565,21.9101
3865942,-259586,21.9101
3870942,-259608,22.9534
3875942,-259628,20.8667
3880942,-259649,21.9101
3885942,-259670,21.9101
3890942,-259691,21.9101
3895942,-259712,21.9101
3900942,-259733,21.9101
3905942,-259754,21.9101
3910942,-259775,21.9101
3915942,-259796,21.9101
3920942,-259817,21.9101
3925942,-259838,21.9101
3930942,-259859,21.9101
3935942,-259880,21.9101
3940942,-259901,21.9101
3945942,-259923,22.9534
3950942,-259944,21.9101
3955942,-259965,21.9101
3960942,-259987,22.9534
3965942,-260008,21.9101
3970942,-260030,22.9534
3975942,-260051,21.9101
3980942,-260072,21.9101
3985942,-260094,22.9534
3990942,-260116,22.9534
3995942,-260137,21.9101
4000942,-260159,22.9534
4005942,-260181,22.9534
4010942,-260202,21.9101
4015942,-260224,22.9534
4020942,-260246,22.9534
4025942,-260268,22.9534
4030942,-260290,22.9534
