Time(us),Position(counts),Speed(rad/s)
2,-304621,0.0000
5002,-304622,1.0433
10003,-304622,0.0000
15005,-304622,0.0000
20007,-304623,1.0429
25007,-304624,1.0433
30009,-304624,0.0000
35010,-304625,1.0431
40012,-304626,1.0429
45013,-304628,2.0863
50015,-304629,1.0429
55016,-304631,2.0863
60016,-304633,2.0867
65018,-304635,2.0858
70020,-304637,2.0858
75021,-304639,2.0863
80023,-304642,3.1288
85023,-304644,2.0867
90024,-304647,3.1294
95026,-304650,3.1288
100027,-304652,2.0863
105029,-304656,4.1717
110029,-304658,2.0867
115031,-304662,4.1717
120032,-304665,3.1294
125034,-304669,4.1717
130035,-304672,3.1294
135036,-304676,4.1725
140037,-304680,4.1725
145039,-304683,3.1288
150040,-304687,4.1725
155042,-304691,4.1717
160042,-304695,4.1733
165044,-304700,5.2146
170045,-304704,4.1725
175047,-304708,4.1717
180048,-304712,4.1725
185050,-304717,5.2146
190051,-304721,4.1725
195052,-304726,5.2156
200053,-304731,5.2156
205055,-304735,4.1717
210056,-304740,5.2156
215058,-304745,5.2146
220060,-304750,5.2146
225061,-304755,5.2156
230063,-304760,5.2146
235064,-304765,5.2156
240066,-304770,5.2146
245068,-304775,5.2146
250069,-304780,5.2156
255071,-304785,5.2146
260072,-304790,5.2156
265074,-304796,6.2575
270076,-304801,5.2146
275077,-304806,5.2156
280079,-304812,6.2575
285080,-304818,6.2588
290082,-304823,5.2146
295083,-304829,6.2588
300083,-304835,6.2600
305085,-304840,5.2146
310087,-304846,6.2575
315088,-304852,6.2588
320090,-304858,6.2575
325091,-304864,6.2588
330093,-304870,6.2575
335093,-304876,6.2600
340095,-304882,6.2575
345096,-304888,6.2588
350098,-304895,7.3004
355099,-304901,6.2588
360099,-304907,6.2600
365101,-304914,7.3004
370103,-304920,6.2575
375104,-304926,6.2588
380105,-304933,7.3019
385106,-304939,6.2588
390107,-304946,7.3019
395109,-304952,6.2575
400110,-304959,7.3019
405112,-304966,7.3004
410112,-304972,6.2600
415114,-304979,7.3004
420115,-304985,6.2588
425117,-304992,7.3004
430118,-304999,7.3019
435119,-305006,7.3019
440120,-305012,6.2588
445122,-305019,7.3004
450123,-305026,7.3019
455125,-305033,7.3004
460125,-305040,7.3034
465127,-305046,6.2575
470128,-305053,7.3019
475129,-305060,7.3019
480131,-305067,7.3004
485131,-305074,7.3034
490133,-305081,7.3004
495134,-305088,7.3019
500136,-305095,7.3004
505137,-305102,7.3019
510138,-305109,7.3019
515139,-305116,7.3019
520141,-305123,7.3004
525142,-305130,7.3019
530144,-305137,7.3004
535144,-305144,7.3034
540146,-305151,7.3004
545147,-305158,7.3019
550149,-305165,7.3004
555150,-305172,7.3019
560150,-305180,8.3467
565152,-305186,6.2575
570154,-305193,7.3004
575155,-305200,7.3019
580157,-305206,6.2575
585157,-305213,7.3034
590158,-305219,6.2588
595160,-305226,7.3004
600161,-305232,6.2588
605163,-305239,7.3004
610163,-305246,7.3034
615165,-305252,6.2575
620166,-305259,7.3019
625168,-305265,6.2575
630169,-305272,7.3019
635170,-305278,6.2588
640171,-305285,7.3019
645173,-305292,7.3004
650174,-305298,6.2588
655176,-305305,7.3004
660176,-305311,6.2600
665178,-305318,7.3004
670179,-305324,6.2588
675181,-305331,7.3004
680182,-305337,6.2588
685182,-305344,7.3034
690184,-305350,6.2575
695185,-305356,6.2588
700187,-305363,7.3004
705188,-305369,6.2588
710189,-305375,6.2588
715190,-305381,6.2588
720192,-305388,7.3004
725193,-305394,6.2588
730195,-305400,6.2575
735195,-305406,6.2600
740197,-305412,6.2575
745198,-305418,6.2588
750200,-305425,7.3004
755201,-305431,6.2588
760202,-305437,6.2588
765203,-305443,6.2588
770205,-305449,6.2575
775206,-305456,7.3019
780208,-305462,6.2575
785208,-305468,6.2600
790210,-305474,6.2575
795211,-305480,6.2588
800212,-305486,6.2588
805214,-305492,6.2575
810214,-305499,7.3034
815216,-305505,6.2575
820217,-305511,6.2588
825219,-305517,6.2575
830220,-305524,7.3019
835221,-305530,6.2588
840222,-305536,6.2588
845224,-305542,6.2575
850225,-305548,6.2588
855227,-305555,7.3004
860227,-305561,6.2600
865229,-305567,6.2575
870230,-305574,7.3019
875232,-305580,6.2575
880233,-305586,6.2588
885233,-305593,7.3034
890235,-305599,6.2575
895237,-305606,7.3004
900238,-305612,6.2588
905239,-305618,6.2588
910240,-305625,7.3019
915241,-305632,7.3019
920243,-305638,6.2575
925244,-305644,6.2588
930246,-305651,7.3004
935246,-305657,6.2600
940248,-305664,7.3004
945249,-305670,6.2588
950251,-305677,7.3004
955252,-305684,7.3019
960253,-305690,6.2588
965254,-305696,6.2588
970256,-305703,7.3004
975257,-305710,7.3019
980259,-305716,6.2575
985259,-305723,7.3034
990261,-305729,6.2575
995262,-305736,7.3019
1000263,-305742,6.2588
1005265,-305749,7.3004
1010265,-305755,6.2600
1015267,-305762,7.3004
1020268,-305768,6.2588
1025270,-305775,7.3004
1030271,-305781,6.2588
1035272,-305788,7.3019
1040273,-305795,7.3019
1045275,-305801,6.2575
1050276,-305808,7.3019
1055278,-305814,6.2575
1060278,-305821,7.3034
1065280,-305828,7.3004
1070281,-305835,7.3019
1075283,-305841,6.2575
1080284,-305848,7.3019
1085284,-305855,7.3034
1090286,-305862,7.3004
1095288,-305869,7.3004
1100289,-305876,7.3019
1105291,-305883,7.3004
1110291,-305890,7.3034
1115292,-305896,6.2588
1120294,-305903,7.3004
1125295,-305910,7.3019
1130297,-305917,7.3004
1135297,-305924,7.3034
1140299,-305931,7.3004
1145300,-305938,7.3019
1150302,-305945,7.3004
1155303,-305952,7.3019
1160304,-305959,7.3019
1165305,-305966,7.3019
1170307,-305974,8.3434
1175308,-305981,7.3019
1180310,-305988,7.3004
1185310,-305994,6.2600
1190312,-306002,8.3434
1195313,-306008,6.2588
1200315,-306015,7.3004
1205316,-306022,7.3019
1210316,-306029,7.3034
1215318,-306036,7.3004
1220319,-306043,7.3019
1225321,-306050,7.3004
1230322,-306057,7.3019
1235323,-306064,7.3019
1240324,-306071,7.3019
1245326,-306078,7.3004
1250327,-306085,7.3019
1255329,-306092,7.3004
1260329,-306099,7.3034
1265331,-306106,7.3004
1270332,-306113,7.3019
1275334,-306120,7.3004
1280335,-306127,7.3019
1285336,-306134,7.3019
1290337,-306141,7.3019
1295339,-306148,7.3004
1300340,-306155,7.3019
1305342,-306162,7.3004
1310342,-306169,7.3034
1315344,-306176,7.3004
1320345,-306183,7.3019
1325346,-306190,7.3019
1330348,-306198,8.3434
1335348,-306205,7.3034
1340350,-306212,7.3004
1345351,-306219,7.3019
1350353,-306226,7.3004
1355354,-306233,7.3019
1360355,-306240,7.3019
1365356,-306248,8.3450
1370358,-306255,7.3004
1375359,-306262,7.3019
1380361,-306269,7.3004
1385361,-306276,7.3034
1390363,-306284,8.3434
1395364,-306291,7.3019
1400366,-306298,7.3004
1405367,-306305,7.3019
1410367,-306313,8.3467
1415369,-306320,7.3004
1420371,-306327,7.3004
1425372,-306334,7.3019
1430373,-306342,8.3450
1435374,-306349,7.3019
1440375,-306356,7.3019
1445377,-306363,7.3004
1450378,-306370,7.3019
1455380,-306378,8.3434
1460380,-306385,7.3034
1465382,-306392,7.3004
1470383,-306399,7.3019
1475385,-306406,7.3004
1480386,-306412,6.2588
1485387,-306419,7.3019
1490388,-306426,7.3019
1495390,-306433,7.3004
1500391,-306439,6.2588
1505393,-306446,7.3004
1510393,-306453,7.3034
1515395,-306460,7.3004
1520396,-306466,6.2588
1525397,-306473,7.3019
1530399,-306480,7.3004
1535399,-306486,6.2600
1540401,-306493,7.3004
1545402,-306500,7.3019
1550404,-306506,6.2575
1555405,-306513,7.3019
1560406,-306520,7.3019
1565407,-306526,6.2588
1570409,-306533,7.3004
1575410,-306540,7.3019
1580412,-306546,6.2575
1585412,-306553,7.3034
1590414,-306559,6.2575
1595415,-306566,7.3019
1600417,-306572,6.2575
1605418,-306579,7.3019
1610418,-306585,6.2600
1615420,-306591,6.2575
1620422,-306598,7.3004
1625423,-306604,6.2588
1630425,-306610,6.2575
1635425,-306617,7.3034
1640426,-306623,6.2588
1645428,-306629,6.2575
1650429,-306635,6.2588
1655431,-306642,7.3004
1660431,-306648,6.2600
1665433,-306654,6.2575
1670434,-306660,6.2588
1675436,-306666,6.2575
1680437,-306672,6.2588
1685438,-306679,7.3019
1690439,-306685,6.2588
1695441,-306691,6.2575
1700442,-306697,6.2588
1705444,-306704,7.3004
1710444,-306710,6.2600
1715446,-306716,6.2575
1720447,-306722,6.2588
1725449,-306728,6.2575
1730450,-306735,7.3019
1735450,-306741,6.2600
1740452,-306747,6.2575
1745453,-306754,7.3019
1750455,-306760,6.2575
1755456,-306766,6.2588
1760457,-306772,6.2588
1765458,-306779,7.3019
1770460,-306785,6.2575
1775461,-306792,7.3019
1780463,-306798,6.2575
1785463,-306804,6.2600
1790465,-306811,7.3004
1795466,-306817,6.2588
1800468,-306824,7.3004
1805469,-306830,6.2588
1810470,-306836,6.2588
1815471,-306843,7.3019
1820473,-306850,7.3004
1825474,-306856,6.2588
1830476,-306863,7.3004
1835476,-306869,6.2600
1840478,-306876,7.3004
1845479,-306882,6.2588
1850480,-306889,7.3019
1855482,-306896,7.3004
1860482,-306902,6.2600
1865484,-306909,7.3004
1870485,-306916,7.3019
1875487,-306923,7.3004
1880488,-306930,7.3019
1885489,-306936,6.2588
1890490,-306943,7.3019
1895492,-306950,7.3004
1900493,-306957,7.3019
1905495,-306964,7.3004
1910495,-306971,7.3034
1915497,-306978,7.3004
1920498,-306984,6.2588
1925500,-306991,7.3004
1930501,-306998,7.3019
1935501,-307005,7.3034
1940503,-307012,7.3004
1945505,-307018,6.2575
1950506,-307025,7.3019
1955507,-307032,7.3019
1960508,-307039,7.3019
1965509,-307046,7.3019
1970511,-307052,6.2575
1975512,-307059,7.3019
1980514,-307066,7.3004
1985514,-307072,6.2600
1990516,-307079,7.3004
1995517,-307086,7.3019
2000519,-307092,6.2575
2005520,-307099,7.3019
2010521,-307106,7.3019
2015522,-307113,7.3019
2020524,-307120,7.3004
2025525,-307126,6.2588
2030527,-307133,7.3004
2035527,-307140,7.3034
2040529,-307147,7.3004
2045530,-307153,6.2588
2050531,-307160,7.3019
2055533,-307167,7.3004
2060533,-307174,7.3034
2065535,-307181,7.3004
2070536,-307188,7.3019
2075538,-307195,7.3004
2080539,-307202,7.3019
2085540,-307209,7.3019
2090541,-307216,7.3019
2095543,-307223,7.3004
2100544,-307230,7.3019
2105546,-307237,7.3004
2110546,-307244,7.3034
2115548,-307251,7.3004
2120549,-307258,7.3019
2125551,-307265,7.3004
2130552,-307272,7.3019
2135552,-307279,7.3034
2140554,-307286,7.3004
2145556,-307293,7.3004
2150557,-307300,7.3019
2155559,-307307,7.3004
2160559,-307314,7.3034
2165560,-307322,8.3450
2170562,-307328,6.2575
2175563,-307336,8.3450
2180565,-307342,6.2575
2185565,-307349,7.3034
2190567,-307356,7.3004
2195568,-307363,7.3019
2200570,-307370,7.3004
2205571,-307377,7.3019
2210572,-307384,7.3019
2215573,-307391,7.3019
2220575,-307398,7.3004
2225576,-307405,7.3019
2230578,-307412,7.3004
2235578,-307419,7.3034
2240580,-307426,7.3004
2245581,-307433,7.3019
2250583,-307440,7.3004
2255584,-307447,7.3019
2260584,-307454,7.3034
2265586,-307461,7.3004
2270587,-307468,7.3019
2275589,-307475,7.3004
2280590,-307482,7.3019
2285591,-307489,7.3019
2290592,-307496,7.3019
2295594,-307503,7.3004
2300595,-307510,7.3019
2305597,-307517,7.3004
2310597,-307524,7.3034
2315599,-307531,7.3004
2320600,-307538,7.3019
2325602,-307545,7.3004
2330603,-307552,7.3019
2335604,-307560,8.3450
2340605,-307566,6.2588
2345607,-307574,8.3434
2350608,-307580,6.2588
2355610,-307588,8.3434
2360610,-307594,6.2600
2365612,-307601,7.3004
2370613,-307607,6.2588
2375614,-307614,7.3019
2380616,-307620,6.2575
2385616,-307626,6.2600
2390618,-307633,7.3004
2395619,-307639,6.2588
2400621,-307645,6.2575
2405622,-307652,7.3019
2410623,-307658,6.2588
2415624,-307664,6.2588
2420626,-307671,7.3004
2425627,-307677,6.2588
2430629,-307684,7.3004
2435629,-307690,6.2600
2440631,-307696,6.2575
2445632,-307703,7.3019
2450634,-307709,6.2575
2455635,-307715,6.2588
2460635,-307722,7.3034
2465637,-307728,6.2575
2470639,-307734,6.2575
2475640,-307740,6.2588
2480641,-307746,6.2588
2485642,-307753,7.3019
2490643,-307759,6.2588
2495645,-307765,6.2575
2500646,-307771,6.2588
2505648,-307777,6.2575
2510648,-307783,6.2600
2515650,-307789,6.2575
2520651,-307795,6.2588
2525653,-307801,6.2575
2530654,-307806,5.2156
2535655,-307812,6.2588
2540656,-307818,6.2588
2545658,-307824,6.2575
2550659,-307830,6.2588
2555661,-307836,6.2575
2560661,-307842,6.2600
2565663,-307848,6.2575
2570664,-307854,6.2588
2575665,-307860,6.2588
2580667,-307865,5.2146
2585667,-307871,6.2600
2590669,-307877,6.2575
2595670,-307883,6.2588
2600672,-307889,6.2575
2605673,-307895,6.2588
2610674,-307901,6.2588
2615675,-307907,6.2588
2620677,-307913,6.2575
2625678,-307919,6.2588
2630680,-307924,5.2146
2635680,-307930,6.2600
2640682,-307936,6.2575
2645683,-307942,6.2588
2650685,-307949,7.3004
2655686,-307955,6.2588
2660686,-307961,6.2600
2665688,-307967,6.2575
2670690,-307973,6.2575
2675691,-307979,6.2588
2680693,-307985,6.2575
2685693,-307991,6.2600
2690694,-307998,7.3019
2695696,-308004,6.2575
2700697,-308010,6.2588
2705699,-308016,6.2575
2710699,-308022,6.2600
2715701,-308029,7.3004
2720702,-308035,6.2588
2725704,-308041,6.2575
2730705,-308048,7.3019
2735706,-308054,6.2588
2740707,-308060,6.2588
2745709,-308066,6.2575
2750710,-308073,7.3019
2755712,-308080,7.3004
2760712,-308086,6.2600
2765714,-308092,6.2575
2770715,-308099,7.3019
2775717,-308105,6.2575
2780718,-308112,7.3019
2785718,-308118,6.2600
2790720,-308125,7.3004
2795721,-308132,7.3019
2800723,-308138,6.2575
2805724,-308145,7.3019
2810725,-308152,7.3019
2815726,-308158,6.2588
2820728,-308165,7.3004
2825729,-308172,7.3019
2830731,-308178,6.2575
2835731,-308185,7.3034
2840733,-308192,7.3004
2845734,-308198,6.2588
2850736,-308205,7.3004
2855737,-308212,7.3019
2860738,-308219,7.3019
2865739,-308226,7.3019
2870741,-308233,7.3004
2875742,-308240,7.3019
2880744,-308246,6.2575
2885744,-308253,7.3034
2890746,-308260,7.3004
2895747,-308267,7.3019
2900748,-308274,7.3019
2905750,-308281,7.3004
2910750,-308288,7.3034
2915752,-308295,7.3004
2920753,-308302,7.3019
2925755,-308309,7.3004
2930756,-308316,7.3019
2935757,-308323,7.3019
2940758,-308330,7.3019
2945760,-308336,6.2575
2950761,-308343,7.3019
2955763,-308350,7.3004
2960763,-308356,6.2600
2965765,-308363,7.3004
2970766,-308370,7.3019
2975768,-308377,7.3004
2980769,-308383,6.2588
2985769,-308390,7.3034
2990771,-308396,6.2575
2995773,-308403,7.3004
3000774,-308410,7.3019
3005775,-308416,6.2588
3010776,-308423,7.3019
3015777,-308429,6.2588
3020779,-308436,7.3004
3025780,-308442,6.2588
3030782,-308449,7.3004
3035782,-308455,6.2600
3040784,-308462,7.3004
3045785,-308468,6.2588
3050787,-308475,7.3004
3055788,-308481,6.2588
3060789,-308488,7.3019
3065790,-308495,7.3019
3070792,-308501,6.2575
3075793,-308508,7.3019
3080795,-308515,7.3004
3085795,-308522,7.3034
3090797,-308528,6.2575
3095798,-308535,7.3019
3100799,-308542,7.3019
3105801,-308549,7.3004
3110801,-308556,7.3034
3115803,-308562,6.2575
3120804,-308569,7.3019
3125806,-308576,7.3004
3130807,-308583,7.3019
3135808,-308590,7.3019
3140809,-308597,7.3019
3145811,-308604,7.3004
3150812,-308611,7.3019
3155814,-308618,7.3004
3160814,-308624,6.2600
3165816,-308632,8.3434
3170817,-308638,6.2588
3175819,-308645,7.3004
3180820,-308652,7.3019
3185820,-308660,8.3467
3190822,-308666,6.2575
3195824,-308674,8.3434
3200825,-308681,7.3019
3205827,-308688,7.3004
3210827,-308694,6.2600
3215828,-308701,7.3019
3220830,-308708,7.3004
3225831,-308715,7.3019
3230833,-308722,7.3004
3235833,-308728,6.2600
3240835,-308735,7.3004
3245836,-308742,7.3019
3250838,-308749,7.3004
3255839,-308756,7.3019
3260840,-308762,6.2588
3265841,-308769,7.3019
3270843,-308776,7.3004
3275844,-308782,6.2588
3280846,-308789,7.3004
3285846,-308796,7.3034
3290848,-308802,6.2575
3295849,-308808,6.2588
3300851,-308814,6.2575
3305852,-308820,6.2588
3310852,-308826,6.2600
3315854,-308832,6.2575
3320855,-308838,6.2588
3325857,-308844,6.2575
3330858,-308850,6.2588
3335859,-308856,6.2588
3340860,-308862,6.2588
3345862,-308868,6.2575
3350863,-308874,6.2588
3355865,-308880,6.2575
3360865,-308886,6.2600
3365867,-308892,6.2575
3370868,-308899,7.3019
3375870,-308905,6.2575
3380871,-308911,6.2588
3385872,-308917,6.2588
3390873,-308923,6.2588
3395875,-308929,6.2575
3400876,-308935,6.2588
3405878,-308941,6.2575
3410878,-308946,5.2167
3415880,-308952,6.2575
3420881,-308958,6.2588
3425882,-308964,6.2588
3430884,-308970,6.2575
3435884,-308976,6.2600
3440886,-308982,6.2575
3445887,-308988,6.2588
3450889,-308993,5.2146
3455890,-308999,6.2588
3460891,-309005,6.2588
3465892,-309011,6.2588
3470894,-309016,5.2146
3475895,-309022,6.2588
3480897,-309028,6.2575
3485898,-309034,6.2588
3490900,-309039,5.2146
3495900,-309045,6.2600
3500902,-309051,6.2575
3505903,-309056,5.2156
3510905,-309062,6.2575
3515907,-309068,6.2575
3520908,-309073,5.2156
3525909,-309079,6.2588
3530910,-309085,6.2588
3535911,-309090,5.2156
3540913,-309096,6.2575
3545915,-309102,6.2575
3550916,-309107,5.2156
3555918,-309113,6.2575
3560919,-309119,6.2588
3565921,-309124,5.2146
3570922,-309130,6.2588
3575923,-309135,5.2156
3580924,-309141,6.2588
3585926,-309146,5.2146
3590927,-309152,6.2588
3595929,-309158,6.2575
3600930,-309163,5.2156
3605932,-309168,5.2146
3610932,-309174,6.2600
3615934,-309180,6.2575
3620935,-309185,5.2156
3625937,-309190,5.2146
3630938,-309196,6.2588
3635940,-309201,5.2146
3640940,-309207,6.2600
3645942,-309213,6.2575
3650945,-309218,5.2136
3655945,-309224,6.2600
3660945,-309230,6.2600
3665945,-309235,5.2167
3670945,-309241,6.2600
3675945,-309247,6.2600
3680945,-309253,6.2600
3685945,-309259,6.2600
3690945,-309265,6.2600
3695945,-309271,6.2600
3700945,-309277,6.2600
3705945,-309283,6.2600
3710945,-309289,6.2600
3715945,-309295,6.2600
3720945,-309302,7.3034
3725945,-309308,6.2600
3730945,-309314,6.2600
3735945,-309320,6.2600
3740945,-309327,7.3034
3745945,-309333,6.2600
3750945,-309340,7.3034
3755945,-309346,6.2600
3760945,-309353,7.3034
3765945,-309359,6.2600
3770945,-309366,7.3034
3775945,-309372,6.2600
3780945,-309379,7.3034
3785945,-309386,7.3034
3790945,-309392,6.2600
3795945,-309399,7.3034
3800945,-309406,7.3034
3805945,-309413,7.3034
3810945,-309420,7.3034
3815945,-309427,7.3034
3820945,-309434,7.3034
3825945,-309440,6.2600
3830945,-309447,7.3034
3835945,-309454,7.3034
3840945,-309461,7.3034
3845945,-309468,7.3034
3850945,-309475,7.3034
3855945,-309482,7.3034
3860945,-309489,7.3034
3865945,-309496,7.3034
3870945,-309503,7.3034
3875945,-309510,7.3034
3880945,-309518,8.3467
3885945,-309524,6.2600
3890945,-309532,8.3467
3895945,-309539,7.3034
3900945,-309546,7.3034
3905945,-309553,7.3034
3910945,-309560,7.3034
3915945,-309567,7.3034
3920945,-309575,8.3467
3925945,-309582,7.3034
3930945,-309589,7.3034
3935945,-309596,7.3034
3940945,-309603,7.3034
3945945,-309611,8.3467
3950945,-309618,7.3034
3955945,-309625,7.3034
3960945,-309632,7.3034
3965945,-309640,8.3467
3970945,-309647,7.3034
3975945,-309654,7.3034
3980945,-309661,7.3034
3985945,-309668,7.3034
3990945,-309676,8.3467
3995945,-309683,7.3034
4000945,-309690,7.3034
4005945,-309696,6.2600
4010945,-309703,7.3034
4015945,-309710,7.3034
4020945,-309717,7.3034
4025945,-309723,6.2600
4030945,-309730,7.3034
4035945,-309736,6.2600
4040945,-309743,7.3034
4045945,-309750,7.3034
4050945,-309756,6.2600
4055945,-309762,6.2600
4060945,-309768,6.2600
4065945,-309775,7.3034
4070945,-309781,6.2600
4075945,-309787,6.2600
4080945,-309793,6.2600
4085945,-309800,7.3034
4090945,-309806,6.2600
4095945,-309812,6.2600
4100945,-309818,6.2600
4105945,-309824,6.2600
4110945,-309830,6.2600
4115945,-309836,6.2600
4120945,-309843,7.3034
4125945,-309849,6.2600
4130945,-309855,6.2600
4135945,-309862,7.3034
4140945,-309868,6.2600
4145945,-309874,6.2600
4150945,-309881,7.3034
4155945,-309887,6.2600
4160945,-309894,7.3034
4165945,-309900,6.2600
4170945,-309906,6.2600
4175945,-309913,7.3034
4180945,-309920,7.3034
4185945,-309926,6.2600
4190945,-309933,7.3034
4195945,-309940,7.3034
4200945,-309946,6.2600
